18	18
59	77
293	370
292	662
284	946
285	1231
284	1515
294	1809
235	2044
358	2402
304	2706
292	2998
284	3282
278	3560
302	3862
308	4170
296	4466
298	4764
296	5060
286	5346
287	5633
285	5918
296	6214
313	6527
296	6823
283	7106
285	7391
279	7670
283	7953
292	8245
294	8539
298	8837
304	9141
290	9431
279	9710
288	9998
284	10282
309	10591
303	10894
297	11191
289	11480
301	11781
285	12066
284	12350
295	12645
304	12949
317	13266
296	13562
280	13842
289	14131
292	14423
287	14710
301	15011
299	15310
297	15607
292	15899
284	16183
281	16464
291	16755
303	17058
300	17358
299	17657
290	17947
280	18227
287	18514
281	18795
285	19080
308	19388
305	19693
296	19989
282	20271
283	20554
283	20837
294	21131
292	21423
306	21729
300	22029
292	22321
282	22603
278	22881
283	23164
289	23453
303	23756
297	24053
292	24345
280	24625
288	24913
284	25197
288	25485
294	25779
309	26088
299	26387
283	26670
282	26952
285	27237
299	27536
297	27833
299	28132
299	28431
296	28727
287	29014
280	29294
286	29580
293	29873
309	30182
305	30487
292	30779
286	31065
283	31348
287	31635
292	31927
297	32224
305	32529
307	32836
291	33127
276	33403
288	33691
289	33980
294	34274
301	34575
295	34870
298	35168
287	35455
281	35736
280	36016
293	36309
296	36605
311	36916
299	37215
284	37499
283	37782
289	38071
285	38356
295	38651
299	38950
302	39252
295	39547
278	39825
271	40096
286	40382
295	40677
293	40970
301	41271
296	41567
282	41849
268	42117
299	42416
281	42697
299	42996
311	43307
296	43603
289	43892
280	44172
283	44455
288	44743
287	45030
293	45323
305	45628
297	45925
279	46204
274	46478
281	46759
278	47037
297	47334
298	47632
287	47919
283	48202
284	48486
280	48766
274	49040
283	49323
295	49618
305	49923
291	50214
277	50491
280	50771
285	51056
283	51339
287	51626
295	51921
295	52216
290	52506
278	52784
279	53063
278	53341
290	53631
292	53923
296	54219
288	54507
277	54784
280	55064
279	55343
282	55625
283	55908
299	56207
295	56502
282	56784
271	57055
278	57333
282	57615
285	57900
292	58192
298	58490
298	58788
289	59077
277	59354
277	59631
288	59919
295	60214
301	60515
302	60817
288	61105
286	61391
289	61680
283	61963
284	62247
300	62547
305	62852
302	63154
284	63438
273	63711
287	63998
290	64288
293	64581
295	64876
298	65174
290	65464
286	65750
280	66030
277	66307
297	66604
188	66792
338	67130
304	67434
294	67728
279	68007
295	68302
292	68594
292	68886
305	69191
312	69503
293	69796
277	70073
284	70357
286	70643
298	70941
299	71240
299	71539
306	71845
293	72138
279	72417
286	72703
295	72998
303	73301
310	73611
300	73911
285	74196
287	74483
284	74767
219	74986
346	75332
300	75632
302	75934
299	76233
282	76515
270	76785
289	77074
292	77366
297	77663
291	77954
297	78251
288	78539
285	78824
276	79100
286	79386
303	79689
302	79991
299	80290
293	80583
285	80868
284	81152
287	81439
291	81730
300	82030
305	82335
301	82636
291	82927
282	83209
283	83492
302	83794
309	84103
304	84407
302	84709
301	85010
293	85303
277	85580
290	85870
301	86171
307	86478
302	86780
299	87079
285	87364
288	87652
289	87941
291	88232
298	88530
304	88834
301	89135
286	89421
282	89703
285	89988
298	90286
304	90590
295	90885
305	91190
291	91481
280	91761
285	92046
292	92338
295	92633
311	92944
302	93246
288	93534
290	93824
278	94102
293	94395
298	94693
303	94996
302	95298
308	95606
287	95893
278	96171
279	96450
296	96746
304	97050
298	97348
296	97644
292	97936
292	98228
280	98508
281	98789
295	99084
298	99382
197	99579
351	99930
288	100218
278	100496
285	100781
290	101071
290	101361
292	101653
288	101941
293	102234
282	102516
277	102793
281	103074
297	103371
298	103669
295	103964
297	104261
284	104545
285	104830
288	105118
289	105407
300	105707
308	106015
299	106314
286	106600
282	106882
277	107159
294	107453
297	107750
295	108045
297	108342
301	108643
283	108926
273	109199
287	109486
286	109772
304	110076
298	110374
299	110673
290	110963
281	111244
280	111524
286	111810
298	112108
297	112405
305	112710
290	113000
281	113281
281	113562
288	113850
292	114142
286	114428
288	114716
284	115000
280	115280
267	115547
268	115815
269	116084
285	116369
285	116654
285	116939
274	117213
281	117494
272	117766
278	118044
279	118323
284	118607
304	118911
304	119215
294	119509
282	119791
286	120077
299	120376
300	120676
314	120990
310	121300
304	121604
285	121889
281	122170
290	122460
290	122750
300	123050
310	123360
304	123664
272	123936
285	124221
286	124507
268	124775
285	125060
295	125355
293	125648
278	125926
277	126203
273	126476
270	126746
279	127025
288	127313
290	127603
289	127892
193	128085
338	128423
275	128698
260	128958
272	129230
289	129519
279	129798
259	130057
261	130318
250	130568
250	130818
255	131073
253	131326
258	131584
267	131851
271	132122
259	132381
248	132629
254	132883
249	133132
258	133390
272	133662
271	133933
264	134197
266	134463
274	134737
253	134990
253	135243
261	135504
276	135780
281	136061
289	136350
280	136630
269	136899
271	137170
279	137449
280	137729
279	138008
296	138304
294	138598
290	138888
276	139164
276	139440
279	139719
290	140009
293	140302
297	140599
282	140881
271	141152
271	141423
261	141684
259	141943
264	142207
272	142479
268	142747
263	143010
255	143265
250	143515
251	143766
259	144025
261	144286
271	144557
275	144832
279	145111
270	145381
266	145647
255	145902
268	146170
275	146445
292	146737
276	147013
277	147290
275	147565
267	147832
267	148099
264	148363
274	148637
279	148916
288	149204
284	149488
280	149768
262	150030
273	150303
272	150575
274	150849
273	151122
285	151407
293	151700
274	151974
263	152237
273	152510
271	152781
286	153067
295	153362
282	153644
278	153922
271	154193
277	154470
271	154741
268	155009
282	155291
297	155588
277	155865
267	156132
263	156395
253	156648
258	156906
262	157168
262	157430
265	157695
265	157960
273	158233
256	158489
241	158730
244	158974
251	159225
254	159479
259	159738
263	160001
259	160260
247	160507
248	160755
250	161005
249	161254
245	161499
265	161764
271	162035
273	162308
265	162573
262	162835
258	163093
269	163362
267	163629
270	163899
283	164182
279	164461
270	164731
260	164991
255	165246
253	165499
257	165756
276	166032
269	166301
269	166570
271	166841
270	167111
260	167371
270	167641
271	167912
279	168191
293	168484
300	168784
290	169074
275	169349
280	169629
278	169907
294	170201
294	170495
224	170719
355	171074
297	171371
281	171652
269	171921
278	172199
282	172481
295	172776
291	173067
284	173351
278	173629
278	173907
269	174176
275	174451
286	174737
286	175023
300	175323
285	175608
269	175877
268	176145
282	176427
271	176698
277	176975
273	177248
275	177523
274	177797
262	178059
257	178316
262	178578
263	178841
276	179117
271	179388
274	179662
265	179927
255	180182
261	180443
262	180705
259	180964
272	181236
287	181523
288	181811
273	182084
269	182353
271	182624
272	182896
285	183181
294	183475
303	183778
293	184071
290	184361
288	184649
284	184933
280	185213
297	185510
318	185828
309	186137
291	186428
289	186717
288	187005
286	187291
286	187577
295	187872
307	188179
302	188481
282	188763
280	189043
287	189330
294	189624
305	189929
299	190228
301	190529
291	190820
292	191112
283	191395
279	191674
303	191977
304	192281
294	192575
287	192862
284	193146
277	193423
280	193703
291	193994
287	194281
293	194574
294	194868
288	195156
270	195426
275	195701
277	195978
290	196268
292	196560
287	196847
285	197132
282	197414
271	197685
265	197950
274	198224
280	198504
287	198791
284	199075
278	199353
266	199619
275	199894
267	200161
273	200434
280	200714
279	200993
278	201271
274	201545
261	201806
261	202067
272	202339
275	202614
282	202896
286	203182
286	203468
273	203741
280	204021
278	204299
275	204574
280	204854
304	205158
301	205459
278	205737
279	206016
272	206288
279	206567
277	206844
286	207130
291	207421
303	207724
280	208004
273	208277
271	208548
274	208822
278	209100
292	209392
291	209683
290	209973
283	210256
278	210534
275	210809
276	211085
279	211364
290	211654
297	211951
277	212228
274	212502
275	212777
281	213058
268	213326
280	213606
288	213894
287	214181
284	214465
273	214738
267	215005
275	215280
283	215563
287	215850
291	216141
290	216431
279	216710
280	216990
278	217268
279	217547
277	217824
298	218122
294	218416
287	218703
269	218972
274	219246
283	219529
284	219813
285	220098
293	220391
300	220691
286	220977
275	221252
275	221527
277	221804
277	222081
294	222375
291	222666
285	222951
276	223227
280	223507
276	223783
264	224047
281	224328
293	224621
294	224915
280	225195
277	225472
271	225743
281	226024
272	226296
277	226573
290	226863
281	227144
283	227427
275	227702
273	227975
263	228238
278	228516
292	228808
286	229094
282	229376
284	229660
276	229936
278	230214
271	230485
276	230761
297	231058
299	231357
281	231638
275	231913
277	232190
269	232459
273	232732
284	233016
285	233301
287	233588
287	233875
276	234151
264	234415
269	234684
275	234959
290	235249
298	235547
281	235828
280	236108
282	236390
274	236664
263	236927
278	237205
290	237495
288	237783
287	238070
273	238343
267	238610
274	238884
273	239157
276	239433
284	239717
279	239996
270	240266
275	240541
268	240809
256	241065
253	241318
270	241588
267	241855
259	242114
259	242373
259	242632
247	242879
253	243132
256	243388
255	243643
265	243908
283	244191
270	244461
268	244729
255	244984
262	245246
269	245515
276	245791
274	246065
287	246352
295	246647
288	246935
266	247201
268	247469
273	247742
275	248017
283	248300
286	248586
292	248878
280	249158
275	249433
273	249706
282	249988
285	250273
285	250558
300	250858
302	251160
281	251441
269	251710
284	251994
291	252285
299	252584
284	252868
291	253159
297	253456
285	253741
269	254010
272	254282
303	254585
306	254891
279	255170
283	255453
285	255738
289	256027
268	256295
277	256572
288	256860
297	257157
282	257439
271	257710
256	257966
260	258226
252	258478
259	258737
268	259005
275	259280
261	259541
270	259811
265	260076
258	260334
251	260585
267	260852
280	261132
285	261417
273	261690
278	261968
273	262241
275	262516
273	262789
273	263062
288	263350
291	263641
290	263931
286	264217
282	264499
273	264772
290	265062
292	265354
297	265651
296	265947
291	266238
290	266528
287	266815
284	267099
276	267375
304	267679
299	267978
282	268260
284	268544
279	268823
279	269102
282	269384
285	269669
291	269960
297	270257
293	270550
271	270821
273	271094
276	271370
286	271656
296	271952
292	272244
289	272533
306	272839
284	273123
271	273394
281	273675
292	273967
297	274264
296	274560
292	274852
279	275131
272	275403
268	275671
278	275949
286	276235
281	276516
288	276804
298	277102
286	277388
261	277649
274	277923
288	278211
307	278518
296	278814
284	279098
284	279382
194	279576
342	279918
291	280209
302	280511
303	280814
296	281110
292	281402
280	281682
273	281955
277	282232
281	282513
288	282801
295	283096
293	283389
283	283672
272	283944
272	284216
275	284491
287	284778
295	285073
290	285363
290	285653
283	285936
274	286210
276	286486
277	286763
288	287051
302	287353
302	287655
289	287944
281	288225
281	288506
286	288792
284	289076
297	289373
294	289667
304	289971
286	290257
281	290538
275	290813
296	291109
298	291407
289	291696
294	291990
291	292281
285	292566
278	292844
279	293123
288	293411
301	293712
299	294011
285	294296
285	294581
276	294857
285	295142
279	295421
296	295717
296	296013
306	296319
292	296611
278	296889
280	297169
281	297450
288	297738
294	298032
302	298334
293	298627
293	298920
286	299206
277	299483
273	299756
295	300051
309	300360
302	300662
278	300940
270	301210
284	301494
287	301781
282	302063
284	302347
297	302644
303	302947
293	303240
263	303503
270	303773
292	304065
296	304361
278	304639
284	304923
288	305211
286	305497
212	305709
326	306035
302	306337
304	306641
302	306943
291	307234
280	307514
231	307745
317	308062
287	308349
276	308625
287	308912
304	309216
299	309515
265	309780
272	310052
280	310332
294	310626
288	310914
285	311199
289	311488
295	311783
279	312062
265	312327
278	312605
220	312825
368	313193
315	313508
300	313808
282	314090
283	314373
291	314664
288	314952
293	315245
296	315541
302	315843
293	316136
279	316415
278	316693
287	316980
286	317266
294	317560
225	317785
360	318145
293	318438
291	318729
282	319011
212	319223
363	319586
318	319904
301	320205
288	320493
293	320786
286	321072
299	321371
292	321663
305	321968
307	322275
298	322573
283	322856
282	323138
287	323425
305	323730
314	324044
296	324340
301	324641
288	324929
286	325215
280	325495
287	325782
306	326088
307	326395
303	326698
288	326986
290	327276
290	327566
292	327858
291	328149
303	328452
301	328753
303	329056
283	329339
280	329619
293	329912
304	330216
308	330524
295	330819
305	331124
287	331411
293	331704
285	331989
290	332279
309	332588
309	332897
302	333199
280	333479
289	333768
288	334056
292	334348
295	334643
300	334943
305	335248
295	335543
280	335823
277	336100
285	336385
294	336679
300	336979
302	337281
290	337571
291	337862
283	338145
287	338432
288	338720
305	339025
302	339327
307	339634
292	339926
279	340205
287	340492
288	340780
295	341075
304	341379
305	341684
290	341974
292	342266
281	342547
275	342822
293	343115
294	343409
296	343705
290	343995
284	344279
277	344556
287	344843
286	345129
286	345415
307	345722
295	346017
291	346308
288	346596
208	346804
343	347147
307	347454
305	347759
304	348063
304	348367
291	348658
276	348934
287	349221
281	349502
302	349804
308	350112
298	350410
282	350692
288	350980
285	351265
216	351481
340	351821
294	352115
301	352416
295	352711
275	352986
271	353257
290	353547
285	353832
296	354128
298	354426
291	354717
298	355015
287	355302
277	355579
279	355858
307	356165
298	356463
295	356758
287	357045
282	357327
283	357610
290	357900
286	358186
296	358482
306	358788
298	359086
279	359365
269	359634
269	359903
279	360182
289	360471
292	360763
288	361051
292	361343
282	361625
269	361894
268	362162
289	362451
281	362732
294	363026
292	363318
288	363606
272	363878
280	364158
288	364446
284	364730
292	365022
308	365330
310	365640
274	365914
277	366191
291	366482
296	366778
285	367063
300	367363
311	367674
286	367960
287	368247
284	368531
293	368824
285	369109
301	369410
304	369714
296	370010
269	370279
278	370557
285	370842
289	371131
275	371406
297	371703
304	372007
292	372299
258	372557
277	372834
289	373123
305	373428
284	373712
288	374000
303	374303
292	374595
260	374855
269	375124
288	375412
303	375715
283	375998
289	376287
289	376576
285	376861
220	377081
323	377404
296	377700
305	378005
303	378308
300	378608
278	378886
273	379159
280	379439
292	379731
292	380023
289	380312
298	380610
288	380898
275	381173
279	381452
272	381724
290	382014
294	382308
299	382607
288	382895
288	383183
274	383457
286	383743
284	384027
290	384317
297	384614
301	384915
290	385205
282	385487
281	385768
282	386050
299	386349
300	386649
292	386941
300	387241
292	387533
278	387811
273	388084
289	388373
298	388671
308	388979
298	389277
286	389563
297	389860
289	390149
285	390434
296	390730
309	391039
305	391344
297	391641
283	391924
280	392204
289	392493
287	392780
297	393077
300	393377
297	393674
283	393957
286	394243
276	394519
282	394801
295	395096
305	395401
296	395697
292	395989
279	396268
285	396553
292	396845
288	397133
202	397335
369	397704
303	398007
287	398294
275	398569
284	398853
286	399139
297	399436
294	399730
293	400023
298	400321
278	400599
278	400877
286	401163
290	401453
304	401757
304	402061
300	402361
285	402646
287	402933
282	403215
294	403509
295	403804
296	404100
303	404403
294	404697
283	404980
275	405255
288	405543
293	405836
295	406131
294	406425
290	406715
290	407005
283	407288
271	407559
290	407849
302	408151
301	408452
294	408746
284	409030
284	409314
283	409597
284	409881
296	410177
300	410477
304	410781
290	411071
281	411352
280	411632
283	411915
291	412206
306	412512
304	412816
293	413109
293	413402
290	413692
277	413969
280	414249
292	414541
306	414847
296	415143
287	415430
273	415703
291	415994
281	416275
280	416555
294	416849
303	417152
293	417445
283	417728
278	418006
277	418283
294	418577
289	418866
289	419155
298	419453
292	419745
277	420022
280	420302
281	420583
290	420873
300	421173
301	421474
292	421766
228	421994
326	422320
283	422603
215	422818
346	423164
298	423462
305	423767
297	424064
275	424339
277	424616
277	424893
295	425188
303	425491
297	425788
290	426078
302	426380
281	426661
277	426938
287	427225
298	427523
304	427827
302	428129
284	428413
285	428698
294	428992
284	429276
282	429558
309	429867
298	430165
305	430470
284	430754
280	431034
281	431315
300	431615
295	431910
299	432209
300	432509
290	432799
283	433082
282	433364
284	433648
193	433841
370	434211
302	434513
297	434810
286	435096
274	435370
288	435658
293	435951
198	436149
363	436512
307	436819
299	437118
282	437400
282	437682
283	437965
303	438268
302	438570
295	438865
293	439158
296	439454
286	439740
282	440022
290	440312
310	440622
312	440934
296	441230
288	441518
296	441814
295	442109
297	442406
217	442623
369	442992
312	443304
302	443606
282	443888
287	444175
298	444473
232	444705
355	445060
302	445362
296	445658
290	445948
278	446226
281	446507
293	446800
304	447104
298	447402
293	447695
285	447980
284	448264
284	448548
286	448834
303	449137
304	449441
307	449748
290	450038
287	450325
282	450607
288	450895
298	451193
308	451501
304	451805
296	452101
289	452390
288	452678
281	452959
291	453250
295	453545
307	453852
302	454154
290	454444
207	454651
346	454997
296	455293
295	455588
300	455888
301	456189
298	456487
284	456771
274	457045
288	457333
301	457634
303	457937
231	458168
356	458524
292	458816
287	459103
277	459380
284	459664
302	459966
309	460275
296	460571
287	460858
290	461148
285	461433
288	461721
293	462014
300	462314
307	462621
298	462919
278	463197
284	463481
284	463765
284	464049
312	464361
303	464664
296	464960
297	465257
281	465538
282	465820
284	466104
300	466404
303	466707
303	467010
298	467308
281	467589
289	467878
286	468164
295	468459
303	468762
303	469065
298	469363
297	469660
282	469942
288	470230
300	470530
307	470837
302	471139
305	471444
283	471727
292	472019
285	472304
285	472589
298	472887
314	473201
297	473498
294	473792
282	474074
288	474362
290	474652
290	474942
295	475237
310	475547
304	475851
285	476136
281	476417
288	476705
295	477000
307	477307
297	477604
294	477898
297	478195
285	478480
277	478757
283	479040
292	479332
301	479633
298	479931
287	480218
276	480494
285	480779
278	481057
283	481340
301	481641
300	481941
298	482239
286	482525
276	482801
270	483071
279	483350
284	483634
296	483930
290	484220
287	484507
279	484786
287	485073
279	485352
289	485641
298	485939
314	486253
303	486556
288	486844
285	487129
294	487423
296	487719
299	488018
302	488320
315	488635
296	488931
283	489214
283	489497
291	489788
302	490090
303	490393
302	490695
299	490994
293	491287
283	491570
280	491850
295	492145
300	492445
305	492750
296	493046
294	493340
283	493623
291	493914
285	494199
292	494491
298	494789
296	495085
285	495370
279	495649
275	495924
277	496201
298	496499
213	496712
362	497074
302	497376
288	497664
281	497945
285	498230
287	498517
295	498812
302	499114
303	499417
284	499701
286	499987
281	500268
281	500549
298	500847
298	501145
303	501448
297	501745
294	502039
277	502316
285	502601
287	502888
303	503191
305	503496
298	503794
286	504080
292	504372
282	504654
282	504936
291	505227
301	505528
302	505830
295	506125
273	506398
281	506679
290	506969
287	507256
296	507552
303	507855
304	508159
296	508455
289	508744
275	509019
300	509319
304	509623
300	509923
297	510220
300	510520
284	510804
289	511093
278	511371
289	511660
310	511970
307	512277
290	512567
284	512851
284	513135
289	513424
295	513719
295	514014
304	514318
310	514628
291	514919
275	515194
282	515476
286	515762
303	516065
306	516371
296	516667
303	516970
296	517266
287	517553
279	517832
295	518127
299	518426
308	518734
294	519028
279	519307
287	519594
288	519882
267	520149
314	520463
305	520768
214	520982
360	521342
285	521627
286	521913
296	522209
302	522511
304	522815
301	523116
300	523416
292	523708
291	523999
280	524279
298	524577
313	524890
308	525198
294	525492
288	525780
284	526064
291	526355
291	526646
295	526941
302	527243
306	527549
289	527838
280	528118
284	528402
287	528689
302	528991
302	529293
306	529599
298	529897
294	530191
280	530471
291	530762
295	531057
301	531358
310	531668
299	531967
290	532257
287	532544
284	532828
293	533121
295	533416
303	533719
293	534012
295	534307
285	534592
281	534873
288	535161
298	535459
309	535768
299	536067
297	536364
280	536644
286	536930
282	537212
293	537505
305	537810
305	538115
306	538421
286	538707
286	538993
285	539278
297	539575
299	539874
298	540172
300	540472
296	540768
284	541052
282	541334
282	541616
300	541916
310	542226
303	542529
296	542825
291	543116
291	543407
282	543689
294	543983
302	544285
305	544590
305	544895
287	545182
273	545455
286	545741
281	546022
284	546306
293	546599
193	546792
407	547199
283	547482
276	547758
274	548032
302	548334
298	548632
294	548926
291	549217
285	549502
282	549784
286	550070
278	550348
291	550639
313	550952
301	551253
279	551532
283	551815
281	552096
289	552385
295	552680
294	552974
308	553282
306	553588
288	553876
278	554154
285	554439
284	554723
303	555026
297	555323
290	555613
301	555914
289	556203
283	556486
279	556765
291	557056
305	557361
306	557667
295	557962
276	558238
289	558527
286	558813
289	559102
293	559395
300	559695
302	559997
298	560295
281	560576
270	560846
295	561141
294	561435
297	561732
287	562019
289	562308
283	562591
221	562812
329	563141
282	563423
308	563731
299	564030
290	564320
281	564601
282	564883
281	565164
288	565452
289	565741
300	566041
218	566259
356	566615
284	566899
286	567185
194	567379
342	567721
306	568027
299	568326
298	568624
295	568919
285	569204
278	569482
280	569762
296	570058
308	570366
302	570668
289	570957
289	571246
292	571538
293	571831
291	572122
306	572428
302	572730
310	573040
288	573328
280	573608
285	573893
300	574193
236	574429
357	574786
309	575095
292	575387
291	575678
281	575959
289	576248
303	576551
311	576862
300	577162
294	577456
285	577741
284	578025
285	578310
290	578600
301	578901
303	579204
244	579448
342	579790
284	580074
283	580357
291	580648
299	580947
299	581246
297	581543
291	581834
285	582119
276	582395
273	582668
251	582919
320	583239
300	583539
282	583821
276	584097
266	584363
272	584635
268	584903
272	585175
279	585454
277	585731
280	586011
264	586275
250	586525
246	586771
259	587030
269	587299
273	587572
271	587843
270	588113
264	588377
266	588643
262	588905
272	589177
277	589454
293	589747
293	590040
276	590316
272	590588
275	590863
280	591143
274	591417
289	591706
293	591999
289	592288
283	592571
282	592853
215	593068
319	593387
296	593683
307	593990
290	594280
283	594563
292	594855
272	595127
275	595402
288	595690
302	595992
286	596278
306	596584
295	596879
257	597136
266	597402
268	597670
255	597925
261	598186
272	598458
255	598713
256	598969
253	599222
246	599468
235	599703
249	599952
262	600214
269	600483
256	600739
272	601011
262	601273
264	601537
262	601799
265	602064
266	602330
280	602610
283	602893
286	603179
276	603455
267	603722
267	603989
288	604277
287	604564
280	604844
304	605148
311	605459
278	605737
271	606008
285	606293
294	606587
293	606880
298	607178
297	607475
291	607766
277	608043
266	608309
267	608576
277	608853
283	609136
289	609425
290	609715
272	609987
275	610262
282	610544
279	610823
285	611108
291	611399
296	611695
291	611986
277	612263
276	612539
280	612819
289	613108
291	613399
294	613693
290	613983
276	614259
280	614539
277	614816
273	615089
281	615370
306	615676
292	615968
282	616250
276	616526
277	616803
283	617086
280	617366
289	617655
294	617949
299	618248
280	618528
276	618804
277	619081
281	619362
291	619653
298	619951
298	620249
292	620541
285	620826
276	621102
277	621379
282	621661
283	621944
303	622247
294	622541
282	622823
266	623089
278	623367
271	623638
279	623917
274	624191
291	624482
283	624765
283	625048
261	625309
270	625579
274	625853
285	626138
289	626427
288	626715
285	627000
281	627281
274	627555
272	627827
276	628103
288	628391
297	628688
293	628981
190	629171
323	629494
267	629761
266	630027
262	630289
272	630561
275	630836
274	631110
267	631377
259	631636
262	631898
258	632156
258	632414
274	632688
270	632958
271	633229
269	633498
270	633768
260	634028
255	634283
262	634545
281	634826
281	635107
287	635394
290	635684
282	635966
272	636238
282	636520
291	636811
294	637105
294	637399
305	637704
293	637997
285	638282
278	638560
286	638846
294	639140
306	639446
298	639744
295	640039
290	640329
286	640615
285	640900
278	641178
301	641479
298	641777
288	642065
272	642337
277	642614
273	642887
277	643164
275	643439
282	643721
284	644005
281	644286
261	644547
260	644807
256	645063
257	645320
261	645581
282	645863
269	646132
261	646393
265	646658
258	646916
252	647168
246	647414
258	647672
262	647934
269	648203
274	648477
256	648733
245	648978
254	649232
252	649484
250	649734
257	649991
